Sensor 1: [0.007553215838864729, 0.00788891432059205, 0.0035248340581368735, -0.001846341649500267, -0.0035248340581368735, -0.001846341649500267, 0.001846341649500267, 0.0055390249485008005, 0.006042572671091783, 0.006881818875410085, 0.009231708247501335, 0.009231708247501335, 0.008560311284046692, 0.008560311284046692, 0.009567406729228655, 0.009231708247501335, 0.008224612802319372, 0.007721065079728388, 0.007217517357137408, 0.007049668116273747, 0.009231708247501335, 0.011581597619592583, 0.008896009765774012, 0.006210421911955443, 0.006881818875410085, 0.008560311284046692, 0.007553215838864729, 0.006210421911955443, 0.0055390249485008005, 0.003860532539864194, 0.0011749446860456242, 0.0005035477225909818, 0.0025177386129549098, 0.0052033264667734795, 0.008560311284046692, 0.009567406729228655, 0.008560311284046692, 0.009903105210955977, 0.011917296101319903, 0.010574502174410621, 0.008560311284046692, 0.006546120393682764, 0.006546120393682764, 0.005874723430228122, 0.0025177386129549098, 0.0006713969634546426, 0.001846341649500267, 0.0030212863355458916, 0.003189135576409552, 0.004531929503318838, 0.0052033264667734795, 0.0052033264667734795, 0.007553215838864729, 0.010910200656137941, 0.01359578850995651, 0.013092240787365528, 0.009735255970092317, 0.007553215838864729, 0.00788891432059205, 0.006881818875410085, 0.006210421911955443, 0.005874723430228122, 0.004196231021591517, 0.00016784924086366064, -0.0008392462043183033, 0.00016784924086366064, 0.0003356984817273213, 0.0021820401312275884, 0.006546120393682764, 0.009903105210955977, 0.009231708247501335, 0.005874723430228122, 0.0030212863355458916, 0.004196231021591517, 0.008560311284046692, 0.010238803692683297, 0.009735255970092317, 0.010406652933546959, 0.011917296101319903, 0.010910200656137941, 0.009903105210955977, 0.008896009765774012, 0.008224612802319372, 0.006210421911955443, 0.003860532539864194, 0.004531929503318838, 0.005874723430228122, 0.007049668116273747, 0.007217517357137408, 0.008560311284046692, 0.009231708247501335, 0.007049668116273747, 0.004196231021591517, 0.003860532539864194, 0.004867627985046159, 0.003860532539864194, 0.0050354772259098195, 0.010574502174410621, 0.01326009002822919, 0.010574502174410621, 0.005874723430228122, 0.003692683299000534, 0.003692683299000534, 0.006546120393682764, 0.008560311284046692, 0.00788891432059205, 0.006546120393682764, 0.006546120393682764, 0.005874723430228122, 0.004364080262455177, 0.004699778744182497, 0.006881818875410085, 0.009903105210955977, 0.011917296101319903, 0.012252994583047227, 0.009567406729228655, 0.008224612802319372, 0.008224612802319372, 0.008728160524910353, 0.008896009765774012, 0.007217517357137408, 0.007217517357137408, 0.009231708247501335, 0.011245899137865261, 0.010910200656137941, 0.011245899137865261, 0.011917296101319903, 0.010910200656137941, 0.00788891432059205, 0.004531929503318838, 0.0053711757076371405, 0.007217517357137408, 0.007217517357137408, 0.008560311284046692, 0.010574502174410621, 0.012420843823910887, 0.012588693064774548, 0.012588693064774548, 0.01292439154650187, 0.012588693064774548, 0.012252994583047227, 0.014602883955138474, 0.018631265735866327, 0.01913481345845731, 0.01829556725413901, 0.016617074845502403, 0.015442130159456776, 0.013931486991683832, 0.01359578850995651, 0.01292439154650187, 0.012588693064774548, 0.011917296101319903, 0.009903105210955977, 0.005874723430228122, 0.004196231021591517, 0.007217517357137408, 0.008392462043183033, 0.006378271152819104, 0.004531929503318838, 0.0052033264667734795, 0.007217517357137408, 0.00788891432059205, 0.008560311284046692, 0.009231708247501335, 0.008392462043183033, 0.008560311284046692, 0.010406652933546959, 0.011245899137865261, 0.008728160524910353, 0.0052033264667734795, 0.006210421911955443, 0.009231708247501335, 0.012420843823910887, 0.012588693064774548, 0.009903105210955977, 0.00788891432059205, 0.011245899137865261, 0.0157778286411841, 0.017288471808957043, 0.01527428091859312, 0.014267185473411156, 0.013931486991683832, 0.010574502174410621, 0.006210421911955443, 0.003860532539864194, 0.004531929503318838, 0.008224612802319372, 0.011917296101319903, 0.011245899137865261, 0.006881818875410085, 0.003860532539864194, 0.001846341649500267, -0.0008392462043183033, -0.0005035477225909818, 0.003189135576409552, 0.0052033264667734795, 0.007217517357137408, 0.010406652933546959, 0.010238803692683297, 0.00788891432059205, 0.006546120393682764, 0.00788891432059205, 0.010238803692683297, 0.011245899137865261, 0.010910200656137941, 0.009903105210955977, 0.005874723430228122, 0.001846341649500267, 0.0025177386129549098, 0.0025177386129549098, 0.00016784924086366064, -0.001846341649500267, -0.0015106431677729458, -0.0010070954451819635, -0.0021820401312275884, -0.0021820401312275884, 0.0023498893720912484, 0.006546120393682764, 0.006210421911955443, 0.006210421911955443, 0.007553215838864729, 0.009231708247501335, 0.013931486991683832, 0.017288471808957043, 0.01527428091859312, 0.010406652933546959, 0.004867627985046159, 0.0005035477225909818, -0.0023498893720912484, -0.0030212863355458916, -0.0011749446860456242, 0.0005035477225909818, -0.00016784924086366064, -0.0006713969634546426, 0.0015106431677729458, 0.0050354772259098195, 0.0030212863355458916, 0.0005035477225909818, 0.0011749446860456242, 0.0011749446860456242, -0.0006713969634546426, -0.0016784924086366065, -0.0008392462043183033, 0.0023498893720912484, 0.0050354772259098195, 0.006546120393682764, 0.005706874189364461, 0.003189135576409552, 0.003860532539864194, 0.0052033264667734795, 0.005706874189364461, 0.0052033264667734795, 0.0052033264667734795, 0.007553215838864729, 0.010574502174410621, 0.009903105210955977, 0.0052033264667734795, 0.0021820401312275884, 0.0011749446860456242, -0.0015106431677729458, -0.004196231021591517, -0.006210421911955443, -0.0055390249485008005, -0.0052033264667734795, -0.004196231021591517, 0.0005035477225909818, 0.003860532539864194, 0.003189135576409552, 0.003860532539864194, 0.0052033264667734795, 0.009063859006637675, 0.012588693064774548, 0.01326009002822919, 0.011917296101319903, 0.011581597619592583, 0.011917296101319903, 0.011078049897001601, 0.012252994583047227, 0.01527428091859312, 0.01594567788204776, 0.017288471808957043, 0.01695277332722972, 0.01628137636377508, 0.01594567788204776, 0.017120622568093383, 0.018631265735866327, 0.0213168535896849, 0.020645456626230255, 0.020645456626230255, 0.019470511940184634]
Sensor 2: [-0.019974059662775615, -0.020645456626230255, -0.0213168535896849, -0.021149004348821242, -0.020645456626230255, -0.019638361181048294, -0.018631265735866327, -0.017624170290684367, -0.01628137636377508, -0.01359578850995651, -0.012252994583047227, -0.012420843823910887, -0.014602883955138474, -0.01695277332722972, -0.01695277332722972, -0.017624170290684367, -0.017624170290684367, -0.017288471808957043, -0.017792019531548024, -0.017959868772411687, -0.017959868772411687, -0.017288471808957043, -0.016617074845502403, -0.01695277332722972, -0.01829556725413901, -0.018631265735866327, -0.018631265735866327, -0.01829556725413901, -0.018631265735866327, -0.017624170290684367, -0.016449225604638743, -0.01560997940032044, -0.01594567788204776, -0.01628137636377508, -0.01594567788204776, -0.016617074845502403, -0.017624170290684367, -0.016617074845502403, -0.01560997940032044, -0.01628137636377508, -0.016617074845502403, -0.015106431677729458, -0.014938582436865796, -0.014602883955138474, -0.01359578850995651, -0.015106431677729458, -0.01695277332722972, -0.01829556725413901, -0.01829556725413901, -0.01896696421759365, -0.019470511940184634, -0.019470511940184634, -0.019638361181048294, -0.01896696421759365, -0.019638361181048294, -0.017792019531548024, -0.016617074845502403, -0.017959868772411687, -0.017959868772411687, -0.017792019531548024, -0.01829556725413901, -0.019302662699320974, -0.01846341649500267, -0.01560997940032044, -0.0157778286411841, -0.01695277332722972, -0.017288471808957043, -0.01628137636377508, -0.0157778286411841, -0.01628137636377508, -0.01695277332722972, -0.01695277332722972, -0.016113527122911416, -0.01628137636377508, -0.01695277332722972, -0.017624170290684367, -0.01896696421759365, -0.020645456626230255, -0.020645456626230255, -0.01896696421759365, -0.01695277332722972, -0.016617074845502403, -0.018631265735866327, -0.01829556725413901, -0.015442130159456776, -0.01359578850995651, -0.012252994583047227, -0.01359578850995651, -0.01527428091859312, -0.01594567788204776, -0.01594567788204776, -0.016617074845502403, -0.017959868772411687, -0.01695277332722972, -0.014938582436865796, -0.01292439154650187, -0.012252994583047227, -0.014938582436865796, -0.01829556725413901, -0.01913481345845731, -0.019638361181048294, -0.019638361181048294, -0.020981155107957578, -0.021988250553139542, -0.022995345998321506, -0.024338139925230793, -0.022995345998321506, -0.021988250553139542, -0.0213168535896849, -0.020645456626230255, -0.019974059662775615, -0.01896696421759365, -0.019638361181048294, -0.022323949034866862, -0.02400244144350347, -0.0260166323338674, -0.027023727779049357, -0.026352330815594724, -0.024841687647821773, -0.022995345998321506, -0.021652552071412222, -0.021652552071412222, -0.021149004348821242, -0.016617074845502403, -0.014267185473411156, -0.01560997940032044, -0.01628137636377508, -0.01695277332722972, -0.01695277332722972, -0.01628137636377508, -0.016617074845502403, -0.017959868772411687, -0.017959868772411687, -0.01829556725413901, -0.017624170290684367, -0.017624170290684367, -0.016617074845502403, -0.01628137636377508, -0.01695277332722972, -0.018631265735866327, -0.019638361181048294, -0.020981155107957578, -0.019974059662775615, -0.017624170290684367, -0.0157778286411841, -0.01376363775082017, -0.011917296101319903, -0.01326009002822919, -0.01359578850995651, -0.014602883955138474, -0.016617074845502403, -0.01628137636377508, -0.01376363775082017, -0.01359578850995651, -0.01560997940032044, -0.01695277332722972, -0.01359578850995651, -0.008896009765774012, -0.007553215838864729, -0.010574502174410621, -0.013092240787365528, -0.014938582436865796, -0.017624170290684367, -0.020645456626230255, -0.021652552071412222, -0.020981155107957578, -0.020309758144502935, -0.020645456626230255, -0.020309758144502935, -0.01896696421759365, -0.017959868772411687, -0.01829556725413901, -0.019302662699320974, -0.019638361181048294, -0.018631265735866327, -0.01846341649500267, -0.01628137636377508, -0.013427939269092852, -0.01376363775082017, -0.0157778286411841, -0.015442130159456776, -0.01326009002822919, -0.011245899137865261, -0.010574502174410621, -0.012252994583047227, -0.014938582436865796, -0.01560997940032044, -0.01560997940032044, -0.01628137636377508, -0.01913481345845731, -0.020981155107957578, -0.020645456626230255, -0.021652552071412222, -0.02333104448004883, -0.021988250553139542, -0.01846341649500267, -0.017120622568093383, -0.017959868772411687, -0.019638361181048294, -0.019638361181048294, -0.01812771801327535, -0.016449225604638743, -0.017959868772411687, -0.01846341649500267, -0.017624170290684367, -0.01594567788204776, -0.015106431677729458, -0.017624170290684367, -0.019638361181048294, -0.0213168535896849, -0.020477607385366595, -0.019638361181048294, -0.021652552071412222, -0.02333104448004883, -0.021988250553139542, -0.020309758144502935, -0.020645456626230255, -0.020645456626230255, -0.020309758144502935, -0.019470511940184634, -0.01829556725413901, -0.020981155107957578, -0.025009536888685433, -0.023163195239185166, -0.019806210421911954, -0.017624170290684367, -0.017792019531548024, -0.01896696421759365, -0.0213168535896849, -0.02265964751659419, -0.02333104448004883, -0.02366674296177615, -0.02333104448004883, -0.02333104448004883, -0.020981155107957578, -0.01829556725413901, -0.017288471808957043, -0.017959868772411687, -0.01896696421759365, -0.019638361181048294, -0.020477607385366595, -0.021652552071412222, -0.021820401312275882, -0.021652552071412222, -0.019974059662775615, -0.017288471808957043, -0.01560997940032044, -0.01560997940032044, -0.014938582436865796, -0.01326009002822919, -0.01326009002822919, -0.013931486991683832, -0.013931486991683832, -0.013092240787365528, -0.013931486991683832, -0.014938582436865796, -0.01560997940032044, -0.015106431677729458, -0.01527428091859312, -0.014602883955138474]
Sensor 3: [0.66015625, 0.6748046875, 0.6630859375, 0.6611328125, 0.685546875, 0.673828125, 0.6513671875, 0.63525390625, 0.6376953125, 0.640625]
Sensor 4: [0.03515625, 0.0400390625, 0.04345703125, 0.03955078125, 0.00439453125, -0.03271484375, -0.03369140625, -0.00244140625, 0.0263671875, 0.03759765625]
Sensor 5: [-0.75830078125, -0.79248046875, -0.7900390625, -0.78369140625, -0.77978515625, -0.77197265625, -0.79150390625, -0.7939453125, -0.7744140625, -0.78369140625]
